Price,Close,High,Low,Open,Volume
Ticker,ATR,ATR,ATR,ATR,ATR
Date,,,,,
2023-04-19,115.82508850097656,116.52759212958334,115.19088342270744,115.49335481190317,252900
2023-04-20,116.13731384277344,116.88860535557001,115.63970585517943,116.10804409832389,296800
2023-04-21,117.6594009399414,118.12773918640524,115.91290832754609,116.42026793756335,361500
2023-04-24,117.47401428222656,118.46922274316375,116.8300501738682,117.92283436805967,229600
2023-04-25,115.20064544677734,117.03495473441777,115.01526047224496,116.52759512515003,167500
2023-04-26,112.93702697753906,114.72255584287616,112.80042987304175,114.16640836199882,247200
2023-04-27,113.73710632324219,113.74686538676524,111.84424997492593,112.93703432599237,361900
2023-04-28,115.62995910644531,116.6641964884701,113.67856332512508,113.67856332512508,586700
2023-05-01,118.68388366699219,119.52298439787556,116.50808167066582,116.50808167066582,283100
2023-05-02,117.55208587646484,117.94235907997972,112.91752086687586,117.80576196995268,359200
2023-05-03,117.35631561279297,118.44276749186734,117.19970643822462,117.91422272900388,294300
2023-05-04,116.27965545654297,117.60101365018939,115.87835004121206,117.39546970606986,192500
2023-05-05,119.11813354492188,119.29431514662869,116.46562704577941,116.46562704577941,171100
2023-05-08,118.92237091064453,119.74454668067096,118.1001951406181,119.27473408852345,200400
2023-05-09,118.02189636230469,118.46234662256596,117.15077831509505,118.30574490665366,185600
2023-05-10,117.08226013183594,118.99088782543379,115.98601828337605,118.52106775679766,227200
2023-05-11,116.74946594238281,117.28780064406416,116.43625506164177,116.94522741005623,203900
2023-05-12,118.2274398803711,118.30574447180786,116.81798710465661,117.14098794368066,168400
2023-05-15,118.02189636230469,118.50149891842825,117.49335156946903,118.0316788356176,148300
2023-05-16,115.80982971191406,118.02188568909864,115.70216277491375,118.02188568909864,180800
2023-05-17,116.446044921875,116.5145595686295,114.96807757898637,116.29922568810495,168600
2023-05-18,116.46562957763672,116.52436175784048,115.28130057779244,115.66302614519938,94000
2023-05-19,116.56349182128906,117.71845831848522,116.08388930434973,117.33673279943648,156900
2023-05-22,115.62386322021484,116.98437370054708,115.38895692360246,116.15240798824512,229600
2023-05-23,114.69402313232422,115.93707675903937,114.42975447602741,114.90935702062212,155400
2023-05-24,112.67774200439453,114.70382683759269,112.5896474633663,114.70382683759269,297800
2023-05-25,111.1312484741211,112.83433226295139,111.0333714687928,111.86533721538859,196800
2023-05-26,111.73809051513672,112.06108386474898,110.55375418559183,110.59290647865859,210200
2023-05-30,110.95507049560547,112.28621872058038,110.61249723201716,111.78703626933051,136100
2023-05-31,110.10352325439453,111.15082291230677,109.32049972997189,111.03337349078869,360800
2023-06-01,110.54398345947266,111.11167310042315,109.66307544070513,110.42652656779127,170700
2023-06-02,111.73809051513672,112.31557003591483,111.2486980531066,111.59127128302042,353000
2023-06-05,110.66142272949219,111.80660678257817,110.48524114190484,111.38572896042709,237400
2023-06-06,111.89469146728516,112.22748222234625,110.64184796772022,110.64184796772022,266900
2023-06-07,112.96157836914062,113.24541944251867,111.64021266926962,111.9338511509158,264100
2023-06-08,112.75601959228516,113.52926057378575,112.35472165893256,113.10838276024836,270500
2023-06-09,112.37429809570312,113.11817675110113,111.96321020753709,112.61899433402147,295000
2023-06-12,112.9419937133789,113.13774771451023,111.87512171240122,112.24705730156532,353000
2023-06-13,112.76581573486328,113.9207823005949,112.32536548445123,113.25520822089301,340600
2023-06-14,112.71688079833984,113.49990429429522,111.92405989423152,113.1573310480937,225200
2023-06-15,113.58799743652344,113.93057067853812,112.51132800799644,112.56027024294279,362600
2023-06-16,114.66465759277344,114.7233822997555,112.91263164828932,113.19648017793008,975300
2023-06-20,113.25520324707031,114.46889446821213,113.25520324707031,114.40037982187839,297000
2023-06-21,111.20954132080078,112.8147479347804,111.01377986328129,112.6972910602687,317800
2023-06-22,111.63043212890625,111.64021460227018,109.96649314999553,111.5325476549715,266200
2023-06-23,110.43630981445312,111.31721777982096,109.6924311473051,110.50482446356303,366000
2023-06-26,111.19976043701172,111.94363910109426,110.66142571941185,110.66142571941185,142300
2023-06-27,112.28620910644531,112.38408610658485,110.8278216420178,111.41509111039147,218300
2023-06-28,111.11166381835938,112.37429729519188,110.0937340456386,112.37429729519188,204800
2023-06-29,112.3449478149414,112.9126449410557,110.1622613164022,111.02358947953131,225900
2023-06-30,113.40202331542969,113.81311119646081,112.40365849859818,112.77560155360995,279800
2023-07-03,114.0676040649414,114.53741668010927,112.96157971034422,112.96157971034422,85700
2023-07-05,110.54398345947266,113.16712763339308,110.36780185571915,113.16712763339308,384200
2023-07-06,110.08395385742188,110.58313631516731,109.26177054657428,109.86861995535376,277700
2023-07-07,111.37594604492188,112.8832758410103,110.20139956441218,110.26013174233668,333400
2023-07-10,112.04151916503906,112.8539125001438,110.61249397363986,110.90612499055,248000
2023-07-11,113.05945587158203,113.10839064038063,110.96485659805919,111.88490940736324,226700
2023-07-12,114.39060974121094,115.05618386378485,113.31394022856402,114.10676118492559,199400
2023-07-13,114.52763366699219,114.87999686047571,114.08717594136934,114.37102448431646,190200
2023-07-14,115.83919525146484,116.31879777741175,114.22419861956125,115.19320107922526,271600
2023-07-17,116.72989654541016,117.00395513969754,114.67444962071818,115.88814088150656,234200
2023-07-18,116.55371856689453,117.81635210189167,116.18177549094285,116.48520391619873,189100
2023-07-19,116.58306884765625,116.8767073016766,115.80003794862601,116.23070568984625,247200
2023-07-20,116.79840087890625,117.66951881990245,116.33837079303582,117.23885108546443,175800
2023-07-21,117.2975845336914,117.50313594411557,116.3481694072685,117.11162047157585,184300
2023-07-24,117.18992614746094,117.93379733790154,116.19156130984005,117.47376721346217,163400
2023-07-25,118.00231170654297,118.55043635890254,116.76904804069125,117.1409836350302,250700
2023-07-26,117.80587768554688,118.24783838233525,116.69607925613465,118.01213050652575,306900
2023-07-27,117.0103759765625,118.62106043322844,116.61752446427387,117.91392920971279,407800
2023-07-28,121.56742858886719,124.72004886936786,119.70138963189594,120.30048646797121,513000
2023-07-31,119.28890228271484,121.7147522454645,118.6701662266649,121.31207739651356,746500
2023-08-01,120.25138854980469,120.31031365260309,118.59159488613733,119.07283404270238,365300
2023-08-02,120.0549545288086,120.14334967269492,117.83535748614567,119.2692590466955,329200
2023-08-03,118.65052032470703,120.53620604280323,118.56213267025929,119.34782818419845,195900
2023-08-04,118.48355865478516,119.94692279752893,118.32642255214415,118.46391945183717,116500
2023-08-07,119.12194061279297,119.48532955559305,118.35588432155619,118.57195301765252,140300
2023-08-08,118.95498657226562,119.22998038234007,117.57018668050868,117.93357563983241,270100
2023-08-09,119.65229797363281,121.1844106709456,118.36570904853748,118.95499007952199,287500
2023-08-10,120.0451431274414,121.3611870426378,119.62282907391943,119.62282907391943,216000
2023-08-11,120.41834259033203,121.01743941858393,119.33800662714654,119.33800662714654,226500
2023-08-14,120.79154968261719,120.79154968261719,119.40675735156422,119.84871059715115,145700
2023-08-15,119.90763854980469,120.73262745234241,119.79961169257463,120.43798695293198,249000
2023-08-16,119.36746978759766,120.9585149369461,119.31836054187586,119.55407592971784,291100
2023-08-17,119.4656753540039,120.46744697423532,119.4460361524195,119.77995503048427,186600
2023-08-18,121.08618927001953,121.21386281949687,119.21032696797391,119.21032696797391,443100
2023-08-21,121.56742858886719,122.23527387368789,120.8602974057607,120.94869255015848,358800
2023-08-22,120.75227355957031,123.46294083286352,120.56567489275949,121.65583431268111,429600
2023-08-23,121.18440246582031,121.35136191655234,120.12370567348907,120.86029941932703,305000
2023-08-24,122.87364959716797,123.21739182128191,120.39869059751058,121.28260452595966,278400
2023-08-25,125.2602310180664,125.39772792698807,122.74599326290499,123.32544345150065,493000
2023-08-28,127.09678649902344,127.26374593316487,125.34859788848107,125.34859788848107,331900
2023-08-29,129.46372985839844,129.6012267644425,127.08697407586149,127.47983308315796,472400
2023-08-30,130.51458740234375,130.87796884776776,129.34585628366472,130.00387821896345,298900
2023-08-31,130.1904754638672,131.33955980840722,129.87620328590836,130.89760659682057,305800
2023-09-01,130.1806640625,131.39848939954598,130.15120151312226,130.72083577782072,252000
2023-09-05,125.2896957397461,129.62086343179044,125.08345037279348,129.32622291156116,325300
2023-09-06,124.15042114257812,125.72181210407221,123.94416830487495,125.50575090465452,291100
2023-09-07,123.11918640136719,124.89683019298761,122.90311770985157,124.03256291994397,328600
2023-09-08,123.07008361816406,124.40577424219794,122.88348495998144,123.26651311759213,238800
2023-09-11,124.73969268798828,125.64324584866502,124.15041921333035,124.72004599278905,333500
2023-09-12,124.26827239990234,125.01468948202319,123.17811307371893,123.85578170702726,258000
2023-09-13,123.1290054321289,124.32719155512868,122.87365085174338,123.5316727579113,279300
2023-09-14,124.49417114257812,125.02451955897023,123.75757736864787,123.75757736864787,217900
2023-09-15,123.67899322509766,124.92628859421592,122.93257617729238,124.2289807903128,589200
2023-09-18,123.3941879272461,124.10131914633943,122.68705670815277,124.10131914633943,175100
2023-09-19,123.07008361816406,123.44329592056776,121.84242734556081,123.44329592056776,218600
2023-09-20,122.40222930908203,123.84595417842684,122.3334808625903,123.59059959444957,206200
2023-09-21,120.03531646728516,122.12723998090696,120.00585391671596,122.10760077820048,335700
2023-09-22,120.48709869384766,120.70316739881738,119.92728772779853,120.14335643276824,341200
2023-09-25,121.82279205322266,121.91117971103851,119.2987309754367,119.80943270430716,258800
2023-09-26,121.39064025878906,121.99956041492935,121.02725882899544,121.32189181317796,547000
2023-09-27,121.31207275390625,122.22544927389316,120.67369751910306,121.82278193337143,362400
2023-09-28,123.22721862792969,123.39417807104091,121.05672338842777,121.6459968595971,219300
2023-09-29,122.80490112304688,124.56290563225991,122.55936989259285,124.22897926247282,330900
2023-10-02,122.81473541259766,123.23704946632577,121.77367780746607,122.30402621166084,244100
2023-10-03,120.67369842529297,123.07007827002421,120.3004861391076,121.80313615259166,236300
2023-10-04,122.00939178466797,122.43170583348096,120.14335279007523,121.34154648638275,208200
2023-10-05,121.53797149658203,122.69687932249244,120.60495572270487,121.74421685208058,466700
2023-10-06,124.15042114257812,124.42541493549054,121.18439953497972,121.4004682274163,491700
2023-10-09,124.67094421386719,124.94593800244684,123.44328801983752,123.57096156652985,275700
2023-10-10,124.2780990600586,126.31109752114908,124.24863650878497,124.96558356650692,322000
2023-10-11,125.25040435791016,125.41736381532654,124.38613702567879,125.25040435791016,212900
2023-10-12,123.17810821533203,125.12271889407367,122.82454263737901,124.94593610509716,189300
2023-10-13,123.71829223632812,124.40577676572362,123.15848126438625,123.74775478858515,324900
2023-10-16,124.4450454711914,125.15217659972988,123.91469712478754,125.08342815628967,275200
2023-10-17,125.20130157470703,126.04592220324169,123.75757658802716,123.75757658802716,314400
2023-10-18,124.51380920410156,125.38789987503907,124.02274669265266,124.6022043525324,287300
2023-10-19,123.48257446289062,125.19146979448645,123.14864808026914,123.8263167001342,443900
2023-10-20,120.03531646728516,124.21917098754773,119.75049932341796,123.67899925038252,446500
2023-10-23,119.32819366455078,120.95852484542363,119.0433765006747,119.54426237459604,379000
2023-10-24,121.13529968261719,121.5576137524862,119.5442619022423,119.94692927508329,312100
2023-10-25,120.5834732055664,121.97288413156701,120.11047761326222,120.64259483535072,431300
2023-10-26,121.62799835205078,123.55938265754256,119.48968081932883,119.48968081932883,576000
2023-10-27,119.40098571777344,122.0320034453814,118.60281365879365,121.66741004461767,364000
2023-10-30,120.38639068603516,120.53420228109623,119.08566218191581,120.1400405336034,283100
2023-10-31,120.48492431640625,121.09587537593698,120.05135317810321,120.72142586603668,422900
2023-11-01,121.13529968261719,121.62799999735687,119.83457115242486,120.32727146716454,360500
2023-11-02,121.77581787109375,122.47545145191846,121.1845789665387,121.91377336488958,384300
2023-11-03,123.51996612548828,124.1309172159371,122.61339936005591,122.61339936005591,278000
2023-11-06,123.36231231689453,123.89442958100173,122.92873361621228,123.44113865682819,173500
2023-11-07,122.73165130615234,123.16522247051353,122.35719425573704,122.80062904943777,205000
2023-11-08,123.29332733154297,123.65792074660918,122.59369379889125,123.05682577159672,175800
2023-11-09,122.573974609375,123.85499833990114,122.25864673204683,123.85499833990114,118600
2023-11-10,123.88455963134766,123.95353736984134,122.08127480185756,122.42616349432598,195600
2023-11-13,122.7119369506836,123.64807204244109,122.55427676220435,123.55938207803837,183100
2023-11-14,125.98346710205078,125.99332321324187,123.48054863822858,124.11120443027716,267400
2023-11-15,125.84550476074219,126.91959528174736,125.49075995729181,125.95389942390811,388600
2023-11-16,125.68785095214844,126.74222178728779,124.9882099024234,125.78638950965576,217000
2023-11-17,126.06229400634766,127.19550615453234,125.74696612770589,126.68309365298343,162700
2023-11-20,125.4612045288086,125.78638853226502,124.58419859319095,125.58930390077174,213900
2023-11-21,126.04259490966797,126.42690054391944,125.34295386473838,125.59916012690935,160600
2023-11-22,126.69296264648438,127.31375480139809,125.50062130193275,126.57470434972278,174800
2023-11-24,126.65354919433594,127.08712790271176,126.22983411589125,127.08712790271176,65900
2023-11-27,125.14588165283203,126.42690549585254,124.99807005278963,125.95390987931889,367500
2023-11-28,123.77617645263672,125.15573886852026,123.65792566795744,125.14588275696106,218000
2023-11-29,123.53968048095703,124.55464193347706,123.09624568381035,123.80573534483685,331800
2023-11-30,125.0374755859375,125.27396961364735,122.9878406310931,123.61849638365914,301000
2023-12-01,126.22982788085938,126.66339153179841,124.57434698847034,124.57434698847034,218300
2023-12-04,126.5451431274414,126.99843401885947,125.0374814137555,125.589303343468,192000
2023-12-05,124.15061950683594,126.81120563802506,124.04222483937953,126.37762696819944,178000
2023-12-06,124.52507019042969,125.44149300250616,124.04221850803862,124.54477489350238,179500
2023-12-07,124.64332580566406,125.2542769136391,124.15062548188074,124.3969756437724,254000
2023-12-08,125.4612045288086,125.63857693814755,123.78602651017061,124.5152208516708,265800
2023-12-11,125.70755767822266,125.81595234862705,124.49551159915998,125.402085889634,338000
2023-12-12,125.6188735961914,126.22982468343064,124.83055009768982,125.78638989626972,210300
2023-12-13,126.7126693725586,127.10683866474034,125.32325832816797,125.32325832816797,425000
2023-12-14,125.54004669189453,128.11193552054817,125.02763413410135,127.19552011597705,412900
2023-12-15,124.1407699584961,126.7028099955473,124.13091384752774,125.30354295843601,713000
2023-12-18,125.19514465332031,125.35280483418258,124.04222027984582,124.86010455222227,240500
2023-12-19,124.38712310791016,126.25938578254896,124.19003847383709,125.84551181000054,659100
2023-12-20,123.73675537109375,125.08675692499624,123.62836070161201,124.18018264223896,346400
2023-12-21,124.07179260253906,124.39696908540449,123.02726285894033,124.39696908540449,421900
2023-12-22,124.42652893066406,125.18529159345975,124.27872485688165,124.55463581862196,312200
2023-12-26,123.99296569824219,125.01778327726647,123.75646412907558,124.29843749423614,274700
2023-12-27,123.45098114013672,124.62361021406865,123.20463099976512,124.27872152115033,283100
2023-12-28,123.37215423583984,123.96340062042223,122.58383825308012,123.15537241523772,343600
2023-12-29,121.81523132324219,123.5298263529118,121.75610217186714,123.36231004637156,313500
2024-01-02,121.08602142333984,122.2882113423541,120.50463868565811,120.8199665727758,313100
2024-01-03,123.52982330322266,125.40208599965642,121.35208881793224,123.32289007354458,531700
2024-01-04,122.40646362304688,124.0816416343124,122.31777365976274,123.3524472960214,353300
2024-01-05,122.38675689697266,122.5542807200301,121.19442302067935,121.97289043108776,423000
2024-01-08,122.53455352783203,123.33273306368484,120.58346470243484,122.25864258428166,352400
2024-01-09,122.81046295166016,122.82031906181052,121.17470201313508,121.9038962860675,250300
2024-01-10,123.36231231689453,123.58895026097082,122.41632857559637,122.64296651967265,279600
2024-01-11,124.98821258544922,125.11631947916773,123.1159573985898,123.54952856453114,323100
2024-01-12,124.58419799804688,126.10171582225095,124.08164158765223,126.02288197003024,231700
2024-01-16,124.95864868164062,124.9685047927624,123.67763240218069,124.04222581557613,257500
2024-01-17,124.84040069580078,125.41192731306471,124.05207723211232,124.1013502678465,336900
2024-01-18,127.25464630126953,128.11194010214282,124.46596050488664,125.46121732087697,444200
2024-01-19,128.89039611816406,129.5407640957172,126.66338123187954,127.81631311755069,418000
2024-01-22,129.2747039794922,129.8856475251251,128.65389680504614,128.98892939226292,266200
2024-01-23,129.90536499023438,129.92507721263678,128.4272640664775,129.87580417464085,217800
2024-01-24,128.87069702148438,130.35864660407273,128.63419545028285,130.1911302963128,294400
2024-01-25,129.3338165283203,130.44732391262338,128.47652289885852,130.10242772080716,332300
2024-01-26,129.77725219726562,130.6542581040403,129.48162901875315,129.7575399757596,219900
2024-01-29,130.31922912597656,130.65426172075584,128.58492948592504,129.13675141521327,187800
2024-01-30,130.31922912597656,131.1469620199089,129.70828556655317,130.10243979146765,228400
2024-01-31,128.38185119628906,131.23851471377182,127.67015512220239,130.84311962662346,537500
2024-02-01,128.99468994140625,129.59765422950105,128.11495664396762,128.95515797554847,298800
2024-02-02,128.5993194580078,129.2022837906748,127.20558000471148,128.46093494310625,344800
2024-02-05,129.1429443359375,129.93371934097573,126.57294442303659,127.64048841742141,319500
2024-02-06,129.61741638183594,129.88429106421623,127.80852367625481,128.9749051014743,369700
2024-02-07,130.27969360351562,130.89253709389965,127.87771574433751,129.8941928462129,393000
2024-02-08,130.59600830078125,133.28463466412623,130.02269671478172,130.12154926100888,620700
2024-02-09,137.35711669921875,137.6042329737992,129.9930396504971,130.58612474260235,650900
2024-02-12,136.02267456054688,138.84968517416033,135.92382202357834,137.55479838688197,491300
2024-02-13,134.36203002929688,135.74588997410547,133.42299136700612,135.1132730253517,275900
2024-02-14,135.58775329589844,135.87441661562917,133.61082313469947,134.68824645268566,335000
2024-02-15,133.48233032226562,136.2203830745882,133.0177655671259,135.58776596719477,471400
2024-02-16,135.9139404296875,136.4081729403409,133.48230984084987,133.80850510781463,453900
2024-02-20,138.07867431640625,138.52348053713612,135.3702748640227,135.55808562189893,373000
2024-02-21,138.3851318359375,138.49386361426275,137.3867873860656,137.4757456366638,276300
2024-02-22,139.83815002441406,140.77718879323245,138.4543050053953,138.84968498717797,295700
2024-02-23,139.72943115234375,140.4114745041769,138.97820308456943,140.3323954839721,190300
2024-02-26,140.28297424316406,140.4213587627913,139.17589808614602,139.8678206842823,199200
2024-02-27,138.6915283203125,140.53995313156625,138.1874165761832,140.28295764916732,244600
2024-02-28,138.79037475585938,139.61080251866568,137.72283074218777,138.03913170025027,189600
2024-02-29,138.83981323242188,139.996315578243,138.21707539898728,139.0078504878543,250600
2024-03-01,138.67176818847656,139.166000759668,137.95019285771573,138.2665089430132,151400
2024-03-04,140.322509765625,140.48065271593177,138.9386496002843,139.06715488751496,260300
2024-03-05,140.8760528564453,141.55809620118723,140.10505127094072,140.6289365769174,190200
2024-03-06,141.41970825195312,141.98312551254168,140.8365023835238,141.28130865931064,184000
2024-03-07,142.98146057128906,143.46581386584012,142.18080631015033,142.83319684988535,250100
2024-03-08,141.43946838378906,143.39664015307895,141.32085739757048,143.04079211164265,185200
2024-03-11,141.09352111816406,141.72613821164805,140.34227795023972,141.1429323095012,226700
2024-03-12,140.76731872558594,141.20224578349422,139.84803833813788,141.15281951186273,242200
2024-03-13,139.53172302246094,141.3504950026278,139.30436521285588,141.3504950026278,336800
2024-03-14,139.3043975830078,139.9864410047515,138.74098024512114,139.7294454748291,235200
2024-03-15,139.3735809326172,140.7673203618107,138.12812032004163,138.4246477877163,599500
2024-03-18,137.6536407470703,139.67011794397158,137.3274454627839,139.3043756103765,299700
2024-03-19,137.90077209472656,138.7014415615886,137.2780492864317,137.2780492864317,253000
2024-03-20,138.35546875,138.45432129846822,137.5350408626139,138.01939421765812,220000
2024-03-21,139.511962890625,139.96666347070155,137.69319073587954,138.69153505192583,255800
2024-03-22,139.95677185058594,140.80685245181078,139.42300732552877,140.37192538847054,276000
2024-03-25,141.3109588623047,142.38838206061226,139.54159811821282,139.5712508607146,316300
2024-03-26,141.5481719970703,142.64536864971888,140.97486053973543,141.1824448071133,314200
2024-03-27,142.99134826660156,143.47568645599083,142.01276250222176,142.01276250222176,218200
2024-03-28,142.230224609375,143.67339010889103,141.99298758564154,143.1495048789109,247800
2024-04-01,140.64869689941406,142.13139459639737,140.480659637023,142.13139459639737,204400
2024-04-02,139.00784301757812,140.20387726631665,138.77060597883303,140.20387726631665,202600
2024-04-03,139.2549591064453,139.5613808543788,138.2565997670471,139.04737481245,258700
2024-04-04,140.1149139404297,141.10337894177312,139.34391244600414,140.19399295047063,403600
2024-04-05,140.09515380859375,141.11327165067468,139.32415224046997,139.749200074722,288300
2024-04-08,138.88922119140625,140.7376611237457,138.77061020980713,140.0358442894643,312500
2024-04-09,138.6915283203125,139.4724241537371,137.752489542293,138.80026007878504,242600
2024-04-10,137.79202270507812,138.60257129033118,136.85298391889893,137.3768691916972,200700
2024-04-11,137.525146484375,138.42463821206607,136.85298241098846,137.65363668388537,265300
2024-04-12,135.61741638183594,137.34723040477462,134.39172924141943,136.57622878974445,299200
2024-04-15,136.60586547851562,138.1972947958432,136.24013824029325,137.01113976468503,319600
2024-04-16,136.9913787841797,137.78215390495146,135.7755708971269,136.20060366340792,281700
2024-04-17,136.80355834960938,137.87110242495726,136.75414716280483,137.2780324382839,565400
2024-04-18,137.50537109375,137.83156636398002,136.62563781929185,136.79367506466258,246600
2024-04-19,137.73269653320312,138.30600798924507,137.16927937920963,137.45592756584185,276600
2024-04-22,138.701416015625,139.52182869263694,137.64375122607495,137.9402937425792,298800
2024-04-23,138.5333709716797,139.53173032694082,137.91064824535826,138.15776450829938,417200
2024-04-24,138.80104064941406,139.68335510057645,138.43424035432284,138.74156115583526,559200
2024-04-25,138.96958923339844,140.03035743209088,137.72047432256866,138.63252864068747,694400
2024-04-26,142.09239196777344,147.22765702236322,140.6747317057196,140.7738742877218,489500
2024-04-29,145.1160430908203,146.74188141681074,143.1233893537548,143.64881170058487,676700
2024-04-30,143.13331604003906,144.83846543736715,142.81607190703252,144.4815733512512,585100
2024-05-01,144.12469482421875,145.9388951720666,143.33159954412173,143.73806295513867,359600
2024-05-02,144.66001892089844,145.46302237225808,144.03545395782604,144.50139684662074,356500
2024-05-03,145.54234313964844,145.8595873094132,143.58935220975846,145.83975576704427,303300
2024-05-06,147.75306701660156,147.7927300968845,145.88931067319132,146.48412073413942,260200
2024-05-07,148.4272003173828,149.08150498588003,147.03929507544868,147.03929507544868,392900
2024-05-08,149.48797607421875,149.56728711831371,148.18928987211282,148.42722300439772,223500
2024-05-09,147.79273986816406,150.41985184686644,147.3466285112002,149.69615941770135,299100
2024-05-10,147.2078399658203,147.71343082694537,146.8112847665745,147.66385953616037,186300
2024-05-13,146.59317016601562,148.18926877448322,145.59189674005788,147.24747484136992,167500
2024-05-14,146.6229248046875,147.02938821645196,146.19664497798402,147.01948000898247,137600
2024-05-15,146.00827026367188,147.0591149900214,145.50267944072058,146.68240648797322,211100
2024-05-16,146.26602172851562,146.6229138221315,145.16560570045274,146.0974914519516,235500
2024-05-17,146.39491271972656,146.89059537204244,145.8595821111204,146.57336634061798,169500
2024-05-20,146.8905792236328,147.12851231631953,145.7703317119024,146.3155855949142,163400
2024-05-21,147.3069610595703,147.3961803029103,145.81991316243668,146.66257968829245,280400
2024-05-22,147.50523376464844,147.54489684709736,146.19663945747445,146.79146467793865,283300
2024-05-23,146.44447326660156,147.66384826627075,146.28585119900947,147.37635900491392,171700
2024-05-24,146.81126403808594,147.5448797078349,146.08757170131335,147.19789584836522,162300
2024-05-28,145.44320678710938,146.50395976994014,144.5608922935827,146.34533769475848,318400
2024-05-29,143.58932495117188,145.43326473853625,143.2621726358456,144.39232830377654,229700
2024-05-30,144.87811279296875,145.71085594812726,143.7479570461014,143.87683936548288,328100
2024-05-31,146.41473388671875,146.5535244144514,144.6600131862872,144.82854346088877,358900
2024-06-03,146.88067626953125,147.21773681761564,145.016904794422,147.21773681761564,266200
2024-06-04,146.91043090820312,147.10870094911363,145.4332911184061,146.37508515800684,287900
2024-06-05,146.6427459716797,146.92032703153012,145.81000279212833,146.44447594707697,229200
2024-06-06,144.69969177246094,146.73197861909964,144.14451447500593,146.73197861909964,197600
2024-06-07,144.293212890625,145.06647656328525,144.19407031637297,144.51131445235308,179100
2024-06-10,144.33287048339844,144.55097205969244,142.74669507866398,143.5794383006771,125800
2024-06-11,144.24363708496094,144.4815701794926,143.10357315194094,143.65873524548223,147700
2024-06-12,144.57080078125,145.0466518806849,142.8260033319662,144.97726417705428,221300
2024-06-13,144.57080078125,145.2647534527246,143.76779732375556,144.63028027780015,232400
2024-06-14,143.5001220703125,144.12468702774592,142.43935397607058,143.8371826298342,141500
2024-06-17,145.0664825439453,145.41345131406592,143.32168510522095,143.61908258617186,303800
2024-06-18,145.42337036132812,146.414735607364,145.20526879703758,145.215177003766,219900
2024-06-20,144.5509796142578,146.25612923056204,144.4121890700021,145.39364621461837,199900
2024-06-21,145.58200073242188,145.86949001427064,144.05528969533336,144.61045184444407,444100
2024-06-24,145.45310974121094,146.95006581321266,145.4035384536277,145.94879236297703,182900
2024-06-25,143.6091766357422,145.53242772029157,143.25228452595948,145.52250438608152,194500
2024-06-26,142.46910095214844,143.53976206691289,141.72557704481986,143.00443150953066,192400
2024-06-27,142.62771606445312,142.6376393984205,141.04154071412032,142.62771606445312,377300
2024-06-28,139.59413146972656,143.07383300497295,138.88034731516487,142.53848732553544,435100
2024-07-01,137.34371948242188,140.25833540676487,137.19502076262134,140.1592079692417,306400
2024-07-02,139.18768310546875,139.2868256870205,136.57047929906446,137.28426353054147,259400
2024-07-03,140.0006103515625,140.17904884646666,139.35622895058526,139.66354977649854,143300
2024-07-05,139.683349609375,140.21869528460468,138.52345414908717,139.77258397326818,207000
2024-07-08,140.28810119628906,141.26955831028232,140.27819298880667,140.4268917362143,249300
2024-07-09,138.83079528808594,140.0501855453827,138.54330599593948,139.6437221262838,238400
2024-07-10,140.07000732421875,140.40708304861766,139.35623817034522,139.53467667705482,142000
2024-07-11,140.8630828857422,142.06264147832923,139.53465709873595,139.9807684299505,244500
2024-07-12,143.34149169921875,144.23372946204688,142.1716880155298,142.1716880155298,263900
2024-07-15,142.19149780273438,144.43199274823323,141.90400856189498,143.5100152823074,319900
2024-07-16,143.31175231933594,144.04536802037586,142.6078914914623,142.6078914914623,178800
2024-07-17,143.6091766357422,144.51132268089205,143.0936624489374,143.0936624489374,242300
2024-07-18,145.01690673828125,145.97853223549606,143.3514203886926,143.3613285954045,434200
2024-07-19,144.6798553466797,145.32423674551748,143.41090896368266,145.32423674551748,251200
2024-07-22,145.91905212402344,146.2858524222435,143.9958011377278,144.72941686120097,235700
2024-07-23,144.7789764404297,147.22764985168743,144.41217613354794,146.59317668806398,234500
2024-07-24,142.8953857421875,145.36389064681148,142.6574526377672,144.80872853019721,250600
2024-07-25,140.70755004882812,143.2533905366081,140.4390389299807,142.04013605814947,558100
2024-07-26,145.84896850585938,150.4533541188069,141.56280539057727,142.3384907482456,562800
2024-07-29,146.98265075683594,147.52961222370007,144.3671901262713,145.7693962937577,390900
2024-07-30,144.94400024414062,147.0821046411007,144.60588409126086,146.56499117472262,411000
2024-07-31,146.1671905517578,148.02685969657,144.60588060439733,145.68984921953128,280600
2024-08-01,146.2169189453125,148.71303311525213,144.6257609184331,146.06775451909584,335300
2024-08-02,144.88433837890625,146.18709166584625,142.9550641290163,145.76941608201565,213500
2024-08-05,139.9020233154297,142.63681563948177,138.70866242708834,142.63681563948177,448500
2024-08-06,144.12852478027344,145.28211358182367,140.3296574037022,140.5484420100103,476000
2024-08-07,142.80589294433594,146.44564148115217,142.6766069931656,145.20255402576765,353600
2024-08-08,144.7550506591797,145.35173872847741,143.66114276467775,143.66114276467775,268600
2024-08-09,143.15394592285156,144.60587872309395,142.6766045968352,144.60587872309395,263200
2024-08-12,142.4976043701172,143.38268209262444,141.98049087846493,143.17385188333637,221100
2024-08-13,143.57162475585938,144.4964897189268,142.30865881915653,142.7163799744283,212000
2024-08-14,143.10423278808594,144.00920416698807,142.69651160394628,143.3329718230229,115700
2024-08-15,146.197021484375,146.5251983879007,144.19814235316255,144.19814235316255,277500
2024-08-16,145.90863037109375,146.02796190772392,144.80476813404368,145.3020031025454,250600
2024-08-19,146.15724182128906,146.91303347942252,145.1130453956634,145.51084245868603,191200
2024-08-20,147.29095458984375,147.48984555804478,146.16719861661608,146.16719861661608,387200
2024-08-21,148.5041961669922,148.74287441249515,146.64454225746965,147.35060740867144,267300
2024-08-22,148.16607666015625,149.5682676941439,147.84783900673068,148.74287102618518,200400
2024-08-23,149.60806274414062,149.697561398404,148.6135927872393,148.83237739171017,221400
2024-08-26,149.32960510253906,151.82571911009308,149.3097114555352,149.84671852938746,235500
2024-08-27,150.3638458251953,150.70196194929295,149.01136615439825,149.18042421644708,208300
2024-08-28,150.7019805908203,151.12961059135196,150.0953532698859,150.0953532698859,249000
2024-08-29,151.43788146972656,152.06440238864897,150.37380652306905,151.70639260275146,187100
2024-08-30,152.3428497314453,152.59146721186758,150.801418317946,151.35831904618675,178500
2024-09-03,149.21026611328125,151.53733735210014,148.90198285360373,151.26882621408117,362400
2024-09-04,149.89645385742188,150.06551193086082,148.7727131134563,148.7727131134563,175800
2024-09-05,149.8865203857422,150.92076251432817,149.120774232965,150.24453019456197,200600
2024-09-06,151.53733825683594,152.27323631996748,149.5483983250729,149.5483983250729,319100
2024-09-09,151.06993103027344,152.21356538244916,150.60252894822426,151.72628482733057,241500
2024-09-10,150.67213439941406,151.94505470234895,150.6025293946509,151.03014418301493,158100
2024-09-11,150.00584411621094,150.0456314120116,147.80807401705235,149.95611758366374,178000
2024-09-12,151.1196746826172,151.16938604532965,149.14067383070338,150.05558445097864,200400
2024-09-13,151.43788146972656,152.1638402781495,151.05997803616611,151.34838281685396,138600
2024-09-16,152.1439666748047,152.32296398627935,151.22905612031653,152.19367803394263,182900
2024-09-17,152.18373107910156,154.70969318079705,151.03014232674312,153.1483681182143,259900
2024-09-18,152.22352600097656,154.63014151391954,151.8655162038375,152.9096975356195,214200
2024-09-19,156.03233337402344,157.9317746725902,154.16274013523173,154.16274013523173,412400
2024-09-20,155.04782104492188,155.44560297439688,153.62572105695324,155.44560297439688,663300
2024-09-23,155.09754943847656,156.04229291310796,153.8842948123072,155.30637964291088,315800
2024-09-24,155.7638397216797,156.21134818325245,155.1671516566441,155.3163160856991,246200
2024-09-25,156.27099609375,156.99695485618986,155.00801509927595,156.43011491616056,284100
2024-09-26,157.504150390625,158.18038265081478,156.8279029560285,157.0665811990167,371600
2024-09-27,159.0058135986328,160.65663750180371,157.3848225826173,157.80249817720116,354300
2024-09-30,159.3041534423828,159.53287729601018,158.05111151727613,158.40912132810544,289800
2024-10-01,159.0853729248047,159.65221295481732,158.17046231231504,159.65221295481732,192200
2024-10-02,157.87210083007812,159.22458053707902,157.08647626489108,158.97596305545684,186900
2024-10-03,158.06106567382812,159.57266433649028,155.77378161802275,157.11632220006732,367000
2024-10-04,159.69198608398438,160.57706373080134,158.4488986488815,159.05552592418798,350500
2024-10-07,157.81243896484375,158.75718238348864,157.13619150741738,158.50856489571856,223300
2024-10-08,157.79254150390625,158.14061204813606,156.23123160913116,157.4046988393335,205900
2024-10-09,158.8168487548828,159.1649193088437,157.24558440528878,157.47432342047782,152600
2024-10-10,158.3395233154297,158.4986421660319,157.1759951724175,157.1759951724175,168500
2024-10-11,160.65663146972656,161.02458051376678,159.4632705050921,160.05000416299626,194400
2024-10-14,166.26544189453125,166.83228190440718,162.55607303964806,164.07761092722026,469700
2024-10-15,167.74717712402344,168.7217685613319,165.56930076776857,166.39471261394294,397300
2024-10-16,165.12179565429688,168.264324563356,165.0024641075556,167.76708955272292,330000
2024-10-17,166.96156311035156,167.38919308930633,165.59914410355705,166.0565917933328,238200
2024-10-18,167.69747924804688,168.16488135723966,166.85217368689194,168.16488135723966,171500
2024-10-21,165.41018676757812,167.55824547758203,165.38035388336198,167.53835182996895,217900
2024-10-22,164.89305114746094,165.44995186171985,163.8985812507396,164.80355249861356,228500
2024-10-23,166.72288513183594,167.05106204430393,165.24113458165908,165.58918996804087,318100
2024-10-24,166.0747528076172,167.84967236242335,165.67588507801304,167.83970637490128,547300
2024-10-25,168.4280242919922,169.36534446606794,164.14029116337366,168.43799027981797,518900
2024-10-28,168.6174774169922,170.92088337270252,168.27843604706132,169.41518243618776,350000
2024-10-29,168.21861267089844,169.00636693188807,167.1616398080247,168.54767284400506,338100
2024-10-30,168.54766845703125,169.714328013908,167.6402615077112,167.86961615330713,290300
2024-10-31,167.43087768554688,169.79411009533038,167.3810173159431,168.60750328890367,329900
2024-11-01,168.9265899658203,170.50208324065764,167.14168923406405,167.6203305026651,316300
2024-11-04,167.7798614501953,170.08328260258884,167.7000879058691,169.14596247581574,191800
2024-11-05,169.8240203857422,169.87388075449797,167.2613617563768,167.2613617563768,206200
2024-11-06,172.6658935546875,174.65020537448822,171.64879985285475,174.65020537448822,264100
2024-11-07,174.2114715576172,174.95933143196427,173.0447967642174,173.7029171053024,412300
2024-11-08,175.2584686279297,177.33253523607218,173.992103489862,174.20149574061398,309200
2024-11-11,175.64735412597656,177.5219944600772,175.3980674949631,175.81688242448436,189100
2024-11-12,175.19863891601562,176.7342530632875,174.4507790328665,176.14592505828819,179800
2024-11-13,174.99920654296875,175.88666629802404,174.55049367180555,174.99920654296875,168400
2024-11-14,173.60321044921875,175.2883752409186,173.41375018118347,174.65020209425916,198200
2024-11-15,166.01492309570312,173.2641670574429,165.69582891847085,172.47642803217843,620500
2024-11-18,166.21435546875,167.341135902623,163.86108907838369,165.91520847039232,384400
2024-11-19,166.42373657226562,167.19154359974243,165.72573709967187,165.9451105360938,287600
2024-11-20,168.24851989746094,168.4579273512117,165.1773069390181,166.52346076181448,221800
2024-11-21,169.39524841308594,169.74424055095207,167.26135556051972,168.208641670796,205100
2024-11-22,171.0205841064453,171.57899890560205,169.6943774870372,169.6943774870372,241600
2024-11-25,172.0077667236328,173.52343362401766,171.24994088106425,171.55905385349027,270100
2024-11-26,171.549072265625,172.36673967559045,170.67159371705566,172.36673967559045,140300
2024-11-27,171.23995971679688,173.38383376500852,171.03056747779922,172.17727983678034,167200
2024-11-29,172.46646118164062,172.9949475966946,171.59893340116236,172.0975066391565,117300
2024-12-02,172.26702880859375,172.6160361797136,170.35250929945437,172.4864022621122,170900
2024-12-03,171.90805053710938,172.95505740530035,170.60179105637272,172.95505740530035,160100
2024-12-04,172.09750366210938,172.3966506427806,170.5419576209161,171.39950418404155,173400
2024-12-05,170.6117706298828,171.94794327564392,170.0433898269147,171.51916237275165,245000
2024-12-06,170.66162109375,172.1573408762202,170.3624893094547,171.1103492006898,209200
2024-12-09,170.30264282226562,172.9750033350816,169.74424322069908,171.07044988204365,301700
2024-12-10,170.42230224609375,170.88098108939263,167.71006270357492,170.23284198746052,287000
2024-12-11,171.8183135986328,173.6032143813691,171.25991398456392,171.38954790041862,418600
2024-12-12,171.1502227783203,172.10749010255316,170.2926761890954,171.1801359557731,178300
2024-12-13,169.71432495117188,170.512045164582,169.3354196416189,170.42230563457585,153200
2024-12-16,167.15167236328125,170.44224363516514,167.11177798281406,169.65450459629096,236100
2024-12-17,162.62461853027344,166.43372545180935,162.37533190604458,166.42374424908144,511900
2024-12-18,157.758544921875,163.95081579196108,157.45939794691134,163.222903151239,468600
2024-12-19,158.41665649414062,161.1089641637906,157.77848335520642,158.05768315253715,404700
2024-12-20,157.72862243652344,159.3240628859033,157.02065695835634,158.26709005466944,730200
2024-12-23,158.0676727294922,158.4465780658023,156.51212657188057,156.72151882334825,194900
2024-12-24,158.89529418945312,158.9650865295937,157.4693668423955,158.32691340499903,100500
2024-12-26,158.396728515625,159.17450157284662,157.96794760624744,157.96794760624744,164500
2024-12-27,157.69871520996094,159.1246426378772,157.160262786745,157.36967024953628,145000
2024-12-30,156.2827606201172,157.04060166846767,154.55770150232826,156.55199442493895,221700
2024-12-31,156.65171813964844,157.79843050588275,155.7343299883636,156.83119720278168,317100
2025-01-02,153.72010803222656,157.6588336626541,153.01212732279112,157.20013957812228,239400
2025-01-03,155.0562744140625,155.2756478523183,152.4337743573442,153.60043388884216,250700
2025-01-06,152.483642578125,154.19873579361064,151.00787000267744,153.560562635424,369000
2025-01-07,152.99217224121094,155.61467226880814,152.1645540786377,155.4750723746726,361200
2025-01-08,153.7101287841797,153.81981550914207,151.65600940329165,152.45372965617733,228600
2025-01-10,153.0121307373047,153.85971136699024,152.14461813216067,152.28421803661197,350800
2025-01-13,153.45086669921875,154.25855288989675,152.493599411778,152.493599411778,349300
2025-01-14,154.1688232421875,155.00642266285314,153.04204281172767,154.36824950207242,196900
2025-01-15,155.11610412597656,156.47222394853713,153.73007112621042,155.67450372081072,206100
2025-01-16,155.96368408203125,156.7215099268813,154.86681687149374,155.44516365384555,346300
2025-01-17,155.64459228515625,157.49928536889254,155.23575857177534,156.52208606699864,231900
2025-01-21,159.37393188476562,159.80269758980108,156.27280556456657,156.27280556456657,270900
2025-01-22,158.61610412597656,160.29130297505606,157.8881762119197,158.88532273120467,280000
2025-01-23,159.16452026367188,159.3539805340669,157.2799139777791,158.00784188142813,149800
2025-01-24,157.84829711914062,160.01210324116374,156.77137705198308,159.19443579165122,329600
2025-01-27,158.00784301757812,158.4665218926501,156.20299504969148,157.79843555530735,317000
2025-01-28,157.9679412841797,159.89244187507774,157.12037591740912,157.12037591740912,204300
2025-01-29,156.66168212890625,158.36680928316397,156.17307488230665,158.32691490392241,265800
2025-01-30,157.67877197265625,158.2271903443595,156.13319194224923,157.36965900962429,274200
2025-01-31,156.70156860351562,158.93518227257192,156.31268207162952,157.44942848908488,834100
2025-02-03,155.534912109375,156.30271920080648,153.70016613851803,154.13891304790744,364600
2025-02-04,157.25,158.0078410777253,155.64459352646102,155.64459352646102,302400
2025-02-05,158.32000732421875,159.66000366210938,157.77999877929688,158.27999877929688,262600
2025-02-06,156.4499969482422,159.83999633789062,155.3699951171875,159.83999633789062,446600
2025-02-07,143.17999267578125,157.89999389648438,142.0399932861328,157.6199951171875,1221500
2025-02-10,143.27999877929688,144.60000610351562,140.89999389648438,144.25999450683594,621900
2025-02-11,142.2899932861328,143.07000732421875,140.25999450683594,142.27000427246094,377300
2025-02-12,141.6999969482422,143.49000549316406,139.92999267578125,140.97000122070312,423500
2025-02-13,142.77000427246094,143.77999877929688,141.4600067138672,142.75,665900
2025-02-14,144.7899932861328,145.30999755859375,142.72000122070312,143.69000244140625,512800
2025-02-18,146.89999389648438,147.2899932861328,143.89999389648438,144.7899932861328,489600
2025-02-19,147.0399932861328,147.49000549316406,145.61000061035156,146.13999938964844,331000
2025-02-20,146.67999267578125,147.4199981689453,145.9199981689453,146.97000122070312,283100
2025-02-21,146.33999633789062,147.38999938964844,145.1999969482422,147.02999877929688,451900
2025-02-24,145.61000061035156,147.2899932861328,144.36000061035156,146.17999267578125,353300
2025-02-25,147.7100067138672,148.3300018310547,145.72000122070312,145.8800048828125,336700
2025-02-26,146.63999938964844,149.17999267578125,146.6199951171875,146.64999389648438,735600
2025-02-27,145.6300048828125,147.17999267578125,145.36000061035156,146.22999572753906,262800
2025-02-28,146.75,146.9499969482422,144.6300048828125,146.16000366210938,348700
2025-03-03,146.58999633789062,148.83999633789062,145.69000244140625,146.97000122070312,394100
2025-03-04,145.94000244140625,147.9499969482422,145.13999938964844,145.5399932861328,490100
2025-03-05,148.44000244140625,148.85000610351562,146.0500030517578,146.0500030517578,445100
2025-03-06,151.14999389648438,151.5,147.05999755859375,147.55999755859375,471700
2025-03-07,152.77999877929688,153.36000061035156,149.17999267578125,150.50999450683594,480200
2025-03-10,150.57000732421875,154.0,150.24000549316406,152.07000732421875,391100
2025-03-11,147.88999938964844,150.55999755859375,147.27000427246094,150.33999633789062,304000
2025-03-12,146.02999877929688,148.24000549316406,145.55999755859375,148.24000549316406,299700
2025-03-13,144.75999450683594,147.1999969482422,143.75999450683594,146.41000366210938,238400
2025-03-14,146.66000366210938,146.88999938964844,144.5399932861328,145.22999572753906,223600
2025-03-17,147.83999633789062,148.0,145.86000061035156,146.50999450683594,225200
2025-03-18,146.3000030517578,147.52999877929688,145.77999877929688,147.38999938964844,219900
2025-03-19,146.97999572753906,147.4600067138672,145.47000122070312,146.33999633789062,279600
2025-03-20,145.1999969482422,147.4199981689453,143.72999572753906,146.1300048828125,332800
2025-03-21,144.82000732421875,145.4600067138672,142.36000061035156,144.0,601900
2025-03-24,147.99000549316406,148.17999267578125,144.91000366210938,145.75,463800
2025-03-25,147.2100067138672,149.22999572753906,145.92999267578125,148.49000549316406,325200
2025-03-26,148.55999755859375,148.6999969482422,146.3000030517578,147.0500030517578,630400
2025-03-27,149.35000610351562,149.88999938964844,147.02999877929688,148.27999877929688,312700
2025-03-28,146.92999267578125,150.0,145.75999450683594,149.2899932861328,239800
2025-03-31,148.3800048828125,149.08999633789062,146.10000610351562,146.5800018310547,372500
2025-04-01,149.10000610351562,150.02999877929688,147.3800048828125,148.8800048828125,240000
2025-04-02,150.52999877929688,151.1300048828125,148.0,148.0,247600
2025-04-03,148.6699981689453,150.0500030517578,146.4600067138672,146.75999450683594,352900
2025-04-04,140.17999267578125,147.9600067138672,140.0399932861328,145.22000122070312,531600
2025-04-07,134.64999389648438,142.1199951171875,130.85000610351562,136.33999633789062,629900
2025-04-08,133.66000366210938,139.30999755859375,131.27999877929688,137.3800048828125,473800
2025-04-09,143.75,144.4199981689453,131.32000732421875,133.17999267578125,491800
2025-04-10,140.75999450683594,143.3699951171875,137.57000732421875,140.0,309000
2025-04-11,144.11000061035156,144.7100067138672,139.74000549316406,140.8699951171875,203000
2025-04-14,145.7899932861328,146.39999389648438,143.7899932861328,145.8000030517578,249300
2025-04-15,143.94000244140625,146.5399932861328,143.77000427246094,146.10000610351562,250700
2025-04-16,145.0,145.82000732421875,142.57000732421875,144.05999755859375,307700
2025-04-17,143.8300018310547,145.75999450683594,140.7100067138672,145.39999389648438,390600
